d[A]	CH	ON	OH	CN
0.005	12285.9913	2.454E+33	-12285.9913	7.173E+33
0.015	4095.3304	4.617E+27	-4095.3304	1.35E+28
0.025	2457.1983	1.005E+25	-2457.1983	2.938E+25
0.035	1755.1416	1.773E+23	-1755.1416	5.183E+23
0.045	1365.1101	8.687E+21	-1365.1101	2.54E+22
0.055	1116.9083	7.818E+20	-1116.9083	2.286E+21
0.065	945.0763	1.053E+20	-945.0763	3.079E+20
0.075	819.0661	1.891E+19	-819.0661	5.529E+19
0.085	722.7054	4.211E+18	-722.7054	1.231E+19
0.095	646.6311	1.109E+18	-646.6311	3.241E+18
0.105	585.0472	3.336E+17	-585.0472	9.752E+17
0.115	534.1735	1.12E+17	-534.1735	3.273E+17
0.125	491.4397	4.116E+16	-491.4397	1.204E+17
0.135	455.0367	1.635E+16	-455.0367	4.779E+16
0.145	423.6549	6.935E+15	-423.6549	2.027E+16
0.155	396.3223	3.115E+15	-396.3223	9.107E+15
0.165	372.3028	1.471E+15	-372.3028	4.301E+15
0.175	351.0283	726100000000000	-351.0283	2.123E+15
0.185	332.0538	372700000000000	-332.0538	1.09E+15
0.195	315.0254	198200000000000	-315.0254	579400000000000
0.205	299.6583	108700000000000	-299.6583	317900000000000
0.215	285.7207	61400000000000	-285.7207	179500000000000
0.225	273.022	35580000000000	-273.022	104000000000000
0.235	261.4041	21120000000000	-261.4041	61740000000000
0.245	250.7345	12810000000000	-250.7345	37440000000000
0.255	240.9018	7924000000000	-240.9018	23170000000000
0.265	231.8112	4995000000000	-231.8112	14600000000000
0.275	223.3817	3202000000000	-223.3817	9362000000000
0.285	215.5437	2086000000000	-215.5437	6099000000000
0.295	208.2371	1379000000000	-208.2371	4032000000000
0.305	201.4097	924400000000	-201.4097	2703000000000
0.315	195.0157	627600000000	-195.0157	1835000000000
0.325	189.0153	431400000000	-189.0153	1261000000000
0.335	183.373	299900000000	-183.373	876700000000
0.345	178.0578	210700000000	-178.0578	615900000000
0.355	173.0421	149500000000	-173.0421	437100000000
0.365	168.3013	107100000000	-168.3013	313200000000
0.375	163.8132	77460000000	-163.8132	226500000000
0.385	159.5583	56480000000	-159.5583	165100000000
0.395	155.5189	41520000000	-155.5189	121400000000
0.405	151.6789	30760000000	-151.6789	89930000000
0.415	148.024	22950000000	-148.024	67110000000
0.425	144.5411	17250000000	-144.5411	50430000000
0.435	141.2183	13050000000	-141.2183	38150000000
0.445	138.0448	9933919149.881	-138.0448	29040000000
0.455	135.0109	7608577264.043	-135.0109	22240000000
0.465	132.1074	5861438066.9278	-132.1074	17140000000
0.475	129.3262	4540624959.7732	-129.3262	13280000000
0.485	126.6597	3536204261.9474	-126.6597	10340000000
0.495	124.1009	2768056804.4494	-124.1009	8092839868.0953
0.505	121.6435	2177408632.5598	-121.6435	6365995751.231
0.515	119.2815	1720872633.199	-119.2815	5031246938.8716
0.525	117.0094	1366226589.9766	-117.0094	3994387462.6393
0.535	114.8223	1089401023.3196	-114.8223	3185046959.5902
0.545	112.7155	872315937.7916	-112.7155	2550366118.6966
0.555	110.6846	701317349.5992	-110.6846	2050425663.1774
0.565	108.7256	566040384.096	-108.7256	1654922466.0904
0.575	106.8347	458577687.8744	-106.8347	1340738293.1618
0.585	105.0085	372867709.1218	-105.0085	1090151359.3691
0.595	103.2436	304242249.9981	-103.2436	889513538.2241
0.605	101.5371	249090053.652	-101.5371	728266813.6159
0.615	99.8861	204605391.6636	-99.8861	598208241.6188
0.625	98.2879	168599249.1727	-98.2879	492937924.9158
0.635	96.7401	139356846.3523	-96.7401	407442457.6676
0.645	95.2402	115529629.6215	-95.2402	337779147.2484
0.655	93.7862	96053028.2674	-93.7862	280835564.5829
0.665	92.3759	80083559.7834	-92.3759	234145663.0449
0.675	91.0073	66950530.7456	-91.0073	195748569.3626
0.685	89.6788	56118795.7789	-89.6788	164079704.3397
0.695	88.3884	47159929.9853	-88.3884	137886501.4647
0.705	87.1347	39729828.9688	-87.1347	116162917.471
0.715	85.916	33551238.887	-85.916	98098356.4991
0.725	84.731	28400082.5023	-84.731	83037692.3825
0.735	83.5782	24094719.0388	-83.5782	70449868.3164
0.745	82.4563	20487479.7571	-82.4563	59903149.9012
0.755	81.3642	17457975.038	-81.3642	51045557.4383
0.765	80.3006	14907785.2364	-80.3006	43589343.8692
0.775	79.2645	12756236.0579	-79.2645	37298643.4713
0.785	78.2547	10937026.703	-78.2547	31979613.7378
0.795	77.2704	9395530.6769	-77.2704	27472543.8915
0.805	76.3105	8086628.8443	-76.3105	23645519.4933
0.815	75.3742	6972964.8913	-75.3742	20389322.0184
0.825	74.4606	6023537.0085	-74.4606	17613311.4243
0.835	73.5688	5212557.9618	-73.5688	15242093.3887
0.845	72.6982	4518530.0007	-72.6982	13212814.6582
0.855	71.8479	3923492.208	-71.8479	11472962.5533
0.865	71.0173	3412406.629	-71.0173	9978570.2173
0.875	70.2057	2972656.3794	-70.2057	8692749.2505
0.885	69.4124	2593634.3349	-69.4124	7584487.1771
0.895	68.6368	2266405.2777	-68.6368	6627659.671
0.905	67.8784	1983427.7539	-67.8784	5800217.3584
0.915	67.1366	1738324.5846	-67.1366	5083514.8655
0.925	66.4108	1525693.112	-66.4108	4461756.0397
0.935	65.7005	1340947.9698	-65.7005	3921534.2593
0.945	65.0052	1180190.5349	-65.0052	3451450.7516
0.955	64.3246	1040100.3145	-64.3246	3041797.0409
0.965	63.658	917844.4034	-63.658	2684290.2315
0.975	63.0051	811001.861	-63.0051	2371851.9069
0.985	62.3654	717500.4294	-62.3654	2098423.1123
0.995	61.7386	635563.4797	-61.7386	1858809.243
1.005	61.1243	563665.4552	-61.1243	1648549.7695
1.015	60.5221	500494.3808	-60.5221	1463808.6292
1.025	59.9317	444920.2665	-59.9317	1301281.8442
1.035	59.3526	395968.4302	-59.3526	1158119.5264
1.045	58.7846	352796.9384	-58.7846	1031859.9177
1.055	58.2274	314677.4959	-58.2274	920373.5191
1.065	57.6807	280979.2335	-57.6807	821815.6872
1.075	57.1441	251154.9297	-57.1441	734586.3522
1.085	56.6175	224729.286	-56.6175	657295.7359
1.095	56.1004	201288.9318	-56.1004	588735.1294
1.105	55.5927	180473.893	-55.5927	527851.9486
1.115	55.0941	161970.2983	-55.0941	473728.409
1.125	54.6044	145504.1352	-54.6044	425563.2694
1.135	54.1233	130835.8966	-54.1233	382656.1802
1.145	53.6506	117755.9852	-53.6506	344394.2459
1.155	53.1861	106080.7627	-53.1861	310240.4741
1.165	52.7296	95649.1489	-52.7296	279723.8314
1.175	52.2808	86319.69	-52.2808	252430.6727
1.185	51.8396	77968.0293	-51.8396	227997.3439
1.195	51.4058	70484.7203	-51.4058	206103.7894
1.205	50.9792	63773.3354	-50.9792	186468.0216
1.215	50.5596	57748.8272	-50.5596	168841.3295
1.225	50.1469	52336.1073	-50.1469	153004.1228
1.235	49.7409	47468.8122	-49.7409	138762.3241
1.245	49.3413	43088.2303	-49.3413	125944.2312
1.255	48.9482	39142.368	-48.9482	114397.7869
1.265	48.5612	35585.1366	-48.5612	103988.1999
1.275	48.1804	32375.6416	-48.1804	94595.8694
1.285	47.8054	29477.5638	-47.8054	86114.5732
1.295	47.4363	26858.6171	-47.4363	78449.8829
1.305	47.0728	24490.0744	-47.0728	71517.7779
1.315	46.7148	22346.3523	-46.7148	65243.4308
1.325	46.3622	20404.6466	-46.3622	59560.1422
1.335	46.0149	18644.6131	-46.0149	54408.4059
1.345	45.6728	17048.0862	-45.6728	49735.0875
1.355	45.3358	15598.8321	-45.3358	45492.7018
1.365	45.0036	14282.3311	-45.0036	41638.7768
1.375	44.6763	13085.586	-44.6763	38135.2931
1.385	44.3538	11996.9532	-44.3538	34948.1896
1.395	44.0358	11005.9929	-44.0358	32046.9269
1.405	43.7224	10103.338	-43.7224	29404.1016
1.415	43.4134	9280.5766	-43.4134	26995.1053
1.425	43.1087	8530.1494	-43.1087	24797.8227
1.435	42.8083	7845.2579	-42.8083	22792.3636
1.445	42.5121	7219.7835	-42.5121	20960.8262
1.455	42.2199	6648.215	-42.2199	19287.0864
1.465	41.9317	6125.5854	-41.9317	17756.6106
1.475	41.6474	5647.4144	-41.6474	16356.2896
1.485	41.367	5209.6581	-41.367	15074.2906
1.495	41.0903	4808.664	-41.0903	13899.9256
1.505	40.8172	4441.1309	-40.8172	12823.5341
1.515	40.5478	4104.0728	-40.5478	11836.3781
1.525	40.2819	3794.7875	-40.2819	10930.5493
1.535	40.0195	3510.8274	-40.0195	10098.885
1.545	39.7605	3249.9749	-39.7605	9334.8941
1.555	39.5048	3010.2186	-39.5048	8632.6901
1.565	39.2524	2789.7336	-39.2524	7986.9314
1.575	39.0031	2586.863	-39.0031	7392.7679
1.585	38.7571	2400.1014	-38.7571	6845.7932
1.595	38.5141	2228.0805	-38.5141	6342.0014
1.605	38.2741	2069.5554	-38.2741	5877.7486
1.615	38.0371	1923.3934	-38.0371	5449.7181
1.625	37.8031	1788.5627	-37.8031	5054.8893
1.635	37.5718	1664.1234	-37.5718	4690.51
1.645	37.3434	1549.2183	-37.3434	4354.0706
1.655	37.1178	1443.0656	-37.1178	4043.2817
1.665	36.8949	1344.9518	-36.8949	3756.0537
1.675	36.6746	1254.2252	-36.6746	3490.478
1.685	36.4569	1170.2903	-36.4569	3244.811
1.695	36.2419	1092.6028	-36.2419	3017.458
1.705	36.0293	1020.6647	-36.0293	2806.9607
1.715	35.8192	954.0205	-35.8192	2611.9843
1.725	35.6116	892.2527	-35.6116	2431.3065
1.735	35.4063	834.9793	-35.4063	2263.8073
1.745	35.2034	781.8498	-35.2034	2108.4605
1.755	35.0028	732.5429	-35.0028	1964.3245
1.765	34.8045	686.7639	-34.8045	1830.5357
1.775	34.6084	644.2423	-34.6084	1706.3011
1.785	34.4145	604.7294	-34.4145	1590.8925
1.795	34.2228	567.9971	-34.2228	1483.6409
1.805	34.0332	533.8354	-34.0332	1383.931
1.815	33.8457	502.0514	-33.8457	1291.197
1.825	33.6603	472.4674	-33.6603	1204.9185
1.835	33.4768	444.92	-33.4768	1124.616
1.845	33.2954	419.2586	-33.2954	1049.8484
1.855	33.1159	395.3446	-33.1159	980.2088
1.865	32.9383	373.0502	-32.9383	915.3225
1.875	32.7626	352.2574	-32.7626	854.8437
1.885	32.5888	332.8574	-32.5888	798.4534
1.895	32.4169	314.7501	-32.4169	745.8573
1.905	32.2467	297.8426	-32.2467	696.7836
1.915	32.0783	282.0494	-32.0783	650.9811
1.925	31.9117	267.2914	-31.9117	608.2177
1.935	31.7467	253.4954	-31.7467	568.279
1.945	31.5835	240.594	-31.5835	530.9664
1.955	31.422	228.5244	-31.422	496.0965
1.965	31.2621	217.2289	-31.2621	463.4992
1.975	31.1038	206.6537	-31.1038	433.0171
1.985	30.9471	196.7493	-30.9471	404.5046
1.995	30.792	187.4696	-30.792	377.8265
2.005	30.6384	178.772	-30.6384	352.8575
2.015	30.4863	170.6169	-30.4863	329.4816
2.025	30.3358	162.9677	-30.3358	307.591
2.035	30.1867	155.7902	-30.1867	287.0856
2.045	30.0391	149.053	-30.0391	267.8727
2.055	29.8929	142.7266	-29.8929	249.866
2.065	29.7482	136.7838	-29.7482	232.9854
2.075	29.6048	131.1993	-29.6048	217.1564
2.085	29.4628	125.9494	-29.4628	202.3098
2.095	29.3222	121.0123	-29.3222	188.3813
2.105	29.1829	116.3676	-29.1829	175.3109
2.115	29.0449	111.9964	-29.0449	163.0429
2.125	28.9082	107.8809	-28.9082	151.5253
2.135	28.7728	104.0048	-28.7728	140.71
2.145	28.6387	100.3528	-28.6387	130.5517
2.155	28.5058	96.9105	-28.5058	121.0086
2.165	28.3741	93.6647	-28.3741	112.0415
2.175	28.2437	90.603	-28.2437	103.614
2.185	28.1144	87.7138	-28.1144	95.692
2.195	27.9863	84.9864	-27.9863	88.2439
2.205	27.8594	82.4106	-27.8594	81.2399
2.215	27.7336	79.977	-27.7336	74.6523
2.225	27.609	77.6769	-27.609	68.4554
2.235	27.4854	75.5021	-27.4854	62.6251
2.245	27.363	73.445	-27.363	57.1387
2.255	27.2417	71.4982	-27.2417	51.9751
2.265	27.1214	69.6552	-27.1214	47.1147
2.275	27.0022	67.9098	-27.0022	42.539
2.285	26.884	66.2559	-26.884	38.2308
2.295	26.7669	64.6882	-26.7669	34.1739
2.305	26.6507	63.2016	-26.6507	30.3531
2.315	26.5356	61.7911	-26.5356	26.7544
2.325	26.4215	60.4524	-26.4215	23.3645
2.335	26.3083	59.1811	-26.3083	20.171
2.345	26.1961	57.9735	-26.1961	17.1622
2.355	26.0849	56.8257	-26.0849	14.3272
2.365	25.9746	55.7342	-25.9746	11.6558
2.375	25.8652	54.6959	-25.8652	9.1384
2.385	25.7568	53.7077	-25.7568	6.766
2.395	25.6493	52.7666	-25.6493	4.5302
2.405	25.5426	51.8701	-25.5426	2.423
2.415	25.4368	51.0156	-25.4368	0.437
2.425	25.3319	50.2008	-25.3319	-1.4348
2.435	25.2279	49.4233	-25.2279	-3.1989
2.445	25.1247	48.6811	-25.1247	-4.8616
2.455	25.0224	47.9723	-25.0224	-6.4285
2.465	24.9209	47.2949	-24.9209	-7.9053
2.475	24.8202	46.6473	-24.8202	-9.2969
2.485	24.7203	46.0279	-24.7203	-10.6082
2.495	24.6212	45.435	-24.6212	-11.8437
2.505	24.5229	44.8673	-24.5229	-13.0077
2.515	24.4254	44.3233	-24.4254	-14.1042
2.525	24.3287	43.8019	-24.3287	-15.137
2.535	24.2327	43.3017	-24.2327	-16.1095
2.545	24.1375	42.8217	-24.1375	-17.0253
2.555	24.043	42.3608	-24.043	-17.8873
2.565	23.9493	41.918	-23.9493	-18.6986
2.575	23.8563	41.4923	-23.8563	-19.462
2.585	23.764	41.0829	-23.764	-20.1801
2.595	23.6724	40.6888	-23.6724	-20.8554
2.605	23.5816	40.3093	-23.5816	-21.4903
2.615	23.4914	39.9437	-23.4914	-22.0869
2.625	23.4019	39.5912	-23.4019	-22.6473
2.635	23.3131	39.2511	-23.3131	-23.1736
2.645	23.2249	38.9229	-23.2249	-23.6674
2.655	23.1375	38.606	-23.1375	-24.1307
2.665	23.0506	38.2997	-23.0506	-24.5651
2.675	22.9645	38.0036	-22.9645	-24.972
2.685	22.8789	37.7171	-22.8789	-25.3531
2.695	22.794	37.4397	-22.794	-25.7096
2.705	22.7098	37.1711	-22.7098	-26.043
2.715	22.6261	36.9108	-22.6261	-26.3543
2.725	22.5431	36.6584	-22.5431	-26.6449
2.735	22.4607	36.4134	-22.4607	-26.9158
2.745	22.3789	36.1757	-22.3789	-27.1681
2.755	22.2976	35.9447	-22.2976	-27.4027
2.765	22.217	35.7203	-22.217	-27.6206
2.775	22.1369	35.502	-22.1369	-27.8227
2.785	22.0574	35.2897	-22.0574	-28.0099
2.795	21.9785	35.083	-21.9785	-28.1828
2.805	21.9002	34.8816	-21.9002	-28.3423
2.815	21.8224	34.6854	-21.8224	-28.4891
2.825	21.7451	34.4941	-21.7451	-28.6239
2.835	21.6684	34.3074	-21.6684	-28.7472
2.845	21.5923	34.1252	-21.5923	-28.8597
2.855	21.5166	33.9473	-21.5166	-28.962
2.865	21.4415	33.7735	-21.4415	-29.0546
2.875	21.3669	33.6036	-21.3669	-29.138
2.885	21.2929	33.4374	-21.2929	-29.2127
2.895	21.2193	33.2748	-21.2193	-29.2792
2.905	21.1463	33.1156	-21.1463	-29.3378
2.915	21.0737	32.9597	-21.0737	-29.3891
2.925	21.0017	32.8069	-21.0017	-29.4334
2.935	20.9301	32.6572	-20.9301	-29.471
2.945	20.8591	32.5103	-20.8591	-29.5024
2.955	20.7885	32.3662	-20.7885	-29.5278
2.965	20.7184	32.2248	-20.7184	-29.5476
2.975	20.6487	32.0859	-20.6487	-29.5621
2.985	20.5795	31.9495	-20.5795	-29.5715
2.995	20.5108	31.8155	-20.5108	-29.5761
3.005	20.4426	31.6837	-20.4426	-29.5763
3.015	20.3748	31.5541	-20.3748	-29.5721
3.025	20.3074	31.4266	-20.3074	-29.564
3.035	20.2405	31.3011	-20.2405	-29.552
3.045	20.174	31.1776	-20.174	-29.5363
3.055	20.108	31.0559	-20.108	-29.5173
3.065	20.0424	30.9361	-20.0424	-29.495
3.075	19.9772	30.818	-19.9772	-29.4697
3.085	19.9125	30.7015	-19.9125	-29.4415
3.095	19.8481	30.5867	-19.8481	-29.4106
3.105	19.7842	30.4735	-19.7842	-29.3771
3.115	19.7207	30.3617	-19.7207	-29.3412
3.125	19.6576	30.2515	-19.6576	-29.3029
3.135	19.5949	30.1426	-19.5949	-29.2626
3.145	19.5326	30.0351	-19.5326	-29.2202
3.155	19.4707	29.929	-19.4707	-29.1758
3.165	19.4091	29.8241	-19.4091	-29.1297
3.175	19.348	29.7204	-19.348	-29.0819
3.185	19.2873	29.618	-19.2873	-29.0324
3.195	19.2269	29.5167	-19.2269	-28.9815
3.205	19.1669	29.4165	-19.1669	-28.9292
3.215	19.1073	29.3175	-19.1073	-28.8755
3.225	19.048	29.2195	-19.048	-28.8206
3.235	18.9892	29.1225	-18.9892	-28.7645
3.245	18.9306	29.0266	-18.9306	-28.7073
3.255	18.8725	28.9316	-18.8725	-28.6492
3.265	18.8147	28.8375	-18.8147	-28.59
3.275	18.7572	28.7444	-18.7572	-28.53
3.285	18.7001	28.6522	-18.7001	-28.4692
3.295	18.6434	28.5609	-18.6434	-28.4075
3.305	18.587	28.4704	-18.587	-28.3452
3.315	18.5309	28.3807	-18.5309	-28.2822
3.325	18.4752	28.2919	-18.4752	-28.2186
3.335	18.4198	28.2038	-18.4198	-28.1544
3.345	18.3647	28.1165	-18.3647	-28.0897
3.355	18.31	28.03	-18.31	-28.0245
3.365	18.2556	27.9442	-18.2556	-27.9589
3.375	18.2015	27.8591	-18.2015	-27.8929
3.385	18.1477	27.7747	-18.1477	-27.8265
3.395	18.0942	27.691	-18.0942	-27.7598
3.405	18.0411	27.6079	-18.0411	-27.6928
3.415	17.9883	27.5256	-17.9883	-27.6255
3.425	17.9358	27.4438	-17.9358	-27.558
3.435	17.8835	27.3627	-17.8835	-27.4902
3.445	17.8316	27.2822	-17.8316	-27.4223
3.455	17.78	27.2023	-17.78	-27.3543
3.465	17.7287	27.123	-17.7287	-27.2861
3.475	17.6777	27.0443	-17.6777	-27.2178
3.485	17.627	26.9661	-17.627	-27.1494
3.495	17.5765	26.8885	-17.5765	-27.0809
3.505	17.5264	26.8114	-17.5264	-27.0124
3.515	17.4765	26.7349	-17.4765	-26.9439
3.525	17.4269	26.6589	-17.4269	-26.8753
3.535	17.3776	26.5835	-17.3776	-26.8068
3.545	17.3286	26.5085	-17.3286	-26.7383
3.555	17.2799	26.434	-17.2799	-26.6698
3.565	17.2314	26.3601	-17.2314	-26.6014
3.575	17.1832	26.2866	-17.1832	-26.533
3.585	17.1353	26.2136	-17.1353	-26.4647
3.595	17.0876	26.141	-17.0876	-26.3965
3.605	17.0402	26.0689	-17.0402	-26.3284
3.615	16.9931	25.9973	-16.9931	-26.2604
3.625	16.9462	25.9261	-16.9462	-26.1925
3.635	16.8996	25.8554	-16.8996	-26.1248
3.645	16.8532	25.7851	-16.8532	-26.0572
3.655	16.8071	25.7152	-16.8071	-25.9897
3.665	16.7612	25.6457	-16.7612	-25.9224
3.675	16.7156	25.5767	-16.7156	-25.8552
3.685	16.6703	25.5081	-16.6703	-25.7883
3.695	16.6252	25.4398	-16.6252	-25.7215
3.705	16.5803	25.372	-16.5803	-25.6549
3.715	16.5357	25.3046	-16.5357	-25.5884
3.725	16.4913	25.2375	-16.4913	-25.5222
3.735	16.4471	25.1709	-16.4471	-25.4562
3.745	16.4032	25.1046	-16.4032	-25.3903
3.755	16.3595	25.0387	-16.3595	-25.3247
3.765	16.3161	24.9732	-16.3161	-25.2593
3.775	16.2728	24.908	-16.2728	-25.1941
3.785	16.2298	24.8432	-16.2298	-25.1292
3.795	16.1871	24.7787	-16.1871	-25.0644
3.805	16.1445	24.7146	-16.1445	-24.9999
3.815	16.1022	24.6509	-16.1022	-24.9357
3.825	16.0601	24.5875	-16.0601	-24.8716
3.835	16.0182	24.5244	-16.0182	-24.8078
3.845	15.9766	24.4617	-15.9766	-24.7442
3.855	15.9351	24.3993	-15.9351	-24.6809
3.865	15.8939	24.3373	-15.8939	-24.6178
3.875	15.8529	24.2755	-15.8529	-24.555
3.885	15.8121	24.2141	-15.8121	-24.4924
3.895	15.7715	24.1531	-15.7715	-24.43
3.905	15.7311	24.0923	-15.7311	-24.3679
3.915	15.6909	24.0318	-15.6909	-24.3061
3.925	15.6509	23.9717	-15.6509	-24.2445
3.935	15.6112	23.9119	-15.6112	-24.1832
3.945	15.5716	23.8523	-15.5716	-24.1221
3.955	15.5322	23.7931	-15.5322	-24.0612
3.965	15.4931	23.7342	-15.4931	-24.0007
3.975	15.4541	23.6756	-15.4541	-23.9403
3.985	15.4153	23.6172	-15.4153	-23.8803
3.995	15.3767	23.5592	-15.3767	-23.8204
4.005	15.3383	23.5014	-15.3383	-23.7609
4.015	15.3001	23.444	-15.3001	-23.7016
4.025	15.2621	23.3868	-15.2621	-23.6425
4.035	15.2243	23.3299	-15.2243	-23.5838
4.045	15.1866	23.2732	-15.1866	-23.5252
4.055	15.1492	23.2169	-15.1492	-23.4669
4.065	15.1119	23.1608	-15.1119	-23.4089
4.075	15.0748	23.105	-15.0748	-23.3511
4.085	15.0379	23.0495	-15.0379	-23.2936
4.095	15.0012	22.9942	-15.0012	-23.2364
4.105	14.9647	22.9392	-14.9647	-23.1794
4.115	14.9283	22.8845	-14.9283	-23.1226
4.125	14.8921	22.83	-14.8921	-23.0661
4.135	14.8561	22.7758	-14.8561	-23.0099
4.145	14.8203	22.7218	-14.8203	-22.9539
4.155	14.7846	22.6681	-14.7846	-22.8981
4.165	14.7491	22.6147	-14.7491	-22.8426
4.175	14.7138	22.5615	-14.7138	-22.7874
4.185	14.6786	22.5085	-14.6786	-22.7324
4.195	14.6436	22.4558	-14.6436	-22.6776
4.205	14.6088	22.4033	-14.6088	-22.6231
4.215	14.5741	22.3511	-14.5741	-22.5689
4.225	14.5396	22.2991	-14.5396	-22.5148
4.235	14.5053	22.2474	-14.5053	-22.4611
4.245	14.4711	22.1959	-14.4711	-22.4075
4.255	14.4371	22.1446	-14.4371	-22.3543
4.265	14.4033	22.0936	-14.4033	-22.3012
4.275	14.3696	22.0428	-14.3696	-22.2484
4.285	14.336	21.9922	-14.336	-22.1958
4.295	14.3027	21.9419	-14.3027	-22.1435
4.305	14.2694	21.8917	-14.2694	-22.0914
4.315	14.2364	21.8418	-14.2364	-22.0396
4.325	14.2035	21.7922	-14.2035	-21.9879
4.335	14.1707	21.7427	-14.1707	-21.9365
4.345	14.1381	21.6935	-14.1381	-21.8854
4.355	14.1056	21.6445	-14.1056	-21.8345
4.365	14.0733	21.5957	-14.0733	-21.7838
4.375	14.0411	21.5472	-14.0411	-21.7333
4.385	14.0091	21.4988	-14.0091	-21.683
4.395	13.9772	21.4507	-13.9772	-21.633
4.405	13.9455	21.4027	-13.9455	-21.5832
4.415	13.9139	21.355	-13.9139	-21.5337
4.425	13.8825	21.3075	-13.8825	-21.4843
4.435	13.8512	21.2602	-13.8512	-21.4352
4.445	13.82	21.2131	-13.82	-21.3863
4.455	13.789	21.1662	-13.789	-21.3376
4.465	13.7581	21.1195	-13.7581	-21.2891
4.475	13.7274	21.0731	-13.7274	-21.2409
4.485	13.6968	21.0268	-13.6968	-21.1928
4.495	13.6663	20.9807	-13.6663	-21.145
4.505	13.636	20.9348	-13.636	-21.0974
4.515	13.6057	20.8891	-13.6057	-21.05
4.525	13.5757	20.8436	-13.5757	-21.0028
4.535	13.5457	20.7983	-13.5457	-20.9558
4.545	13.5159	20.7532	-13.5159	-20.9091
4.555	13.4863	20.7083	-13.4863	-20.8625
4.565	13.4567	20.6636	-13.4567	-20.8161
4.575	13.4273	20.6191	-13.4273	-20.77
4.585	13.398	20.5747	-13.398	-20.724
4.595	13.3689	20.5306	-13.3689	-20.6783
4.605	13.3398	20.4866	-13.3398	-20.6328
4.615	13.3109	20.4428	-13.3109	-20.5874
4.625	13.2822	20.3992	-13.2822	-20.5423
4.635	13.2535	20.3558	-13.2535	-20.4973
4.645	13.225	20.3125	-13.225	-20.4526
4.655	13.1966	20.2695	-13.1966	-20.408
4.665	13.1683	20.2266	-13.1683	-20.3636
4.675	13.1401	20.1839	-13.1401	-20.3195
4.685	13.1121	20.1414	-13.1121	-20.2755
4.695	13.0841	20.099	-13.0841	-20.2317
4.705	13.0563	20.0568	-13.0563	-20.1881
4.715	13.0286	20.0148	-13.0286	-20.1447
4.725	13.001	19.973	-13.001	-20.1014
4.735	12.9736	19.9314	-12.9736	-20.0584
4.745	12.9463	19.8899	-12.9463	-20.0155
4.755	12.919	19.8486	-12.919	-19.9729
4.765	12.8919	19.8074	-12.8919	-19.9304
4.775	12.8649	19.7664	-12.8649	-19.8881
4.785	12.838	19.7256	-12.838	-19.8459
4.795	12.8113	19.685	-12.8113	-19.804
4.805	12.7846	19.6445	-12.7846	-19.7622
4.815	12.758	19.6041	-12.758	-19.7206
4.825	12.7316	19.564	-12.7316	-19.6792
4.835	12.7053	19.524	-12.7053	-19.638
4.845	12.679	19.4841	-12.679	-19.5969
4.855	12.6529	19.4445	-12.6529	-19.556
4.865	12.6269	19.4049	-12.6269	-19.5153
4.875	12.601	19.3656	-12.601	-19.4747
4.885	12.5752	19.3264	-12.5752	-19.4343
4.895	12.5495	19.2873	-12.5495	-19.3941
4.905	12.5239	19.2484	-12.5239	-19.3541
4.915	12.4985	19.2097	-12.4985	-19.3142
4.925	12.4731	19.1711	-12.4731	-19.2745
4.935	12.4478	19.1327	-12.4478	-19.2349
4.945	12.4226	19.0944	-12.4226	-19.1956
4.955	12.3976	19.0562	-12.3976	-19.1563
4.965	12.3726	19.0182	-12.3726	-19.1173
4.975	12.3477	18.9804	-12.3477	-19.0784
4.985	12.323	18.9427	-12.323	-19.0396
4.995	12.2983	18.9052	-12.2983	-19.001
5.005	12.2737	18.8678	-12.2737	-18.9626
5.015	12.2492	18.8305	-12.2492	-18.9243
5.025	12.2249	18.7934	-12.2249	-18.8862
5.035	12.2006	18.7565	-12.2006	-18.8483
5.045	12.1764	18.7196	-12.1764	-18.8105
5.055	12.1523	18.683	-12.1523	-18.7728
5.065	12.1283	18.6464	-12.1283	-18.7353
5.075	12.1044	18.61	-12.1044	-18.698
5.085	12.0806	18.5738	-12.0806	-18.6608
5.095	12.0569	18.5377	-12.0569	-18.6237
5.105	12.0333	18.5017	-12.0333	-18.5868
5.115	12.0098	18.4658	-12.0098	-18.5501
5.125	11.9863	18.4301	-11.9863	-18.5135
5.135	11.963	18.3946	-11.963	-18.477
5.145	11.9397	18.3591	-11.9397	-18.4407
5.155	11.9166	18.3238	-11.9166	-18.4046
5.165	11.8935	18.2886	-11.8935	-18.3685
5.175	11.8705	18.2536	-11.8705	-18.3326
5.185	11.8476	18.2187	-11.8476	-18.2969
5.195	11.8248	18.1839	-11.8248	-18.2613
5.205	11.8021	18.1493	-11.8021	-18.2258
5.215	11.7795	18.1148	-11.7795	-18.1905
5.225	11.7569	18.0804	-11.7569	-18.1553
5.235	11.7345	18.0462	-11.7345	-18.1203
5.245	11.7121	18.012	-11.7121	-18.0854
5.255	11.6898	17.978	-11.6898	-18.0506
5.265	11.6676	17.9442	-11.6676	-18.016
5.275	11.6455	17.9104	-11.6455	-17.9815
5.285	11.6235	17.8768	-11.6235	-17.9471
5.295	11.6015	17.8433	-11.6015	-17.9129
5.305	11.5796	17.8099	-11.5796	-17.8788
5.315	11.5578	17.7767	-11.5578	-17.8448
5.325	11.5361	17.7435	-11.5361	-17.811
5.335	11.5145	17.7105	-11.5145	-17.7772
5.345	11.493	17.6776	-11.493	-17.7437
5.355	11.4715	17.6449	-11.4715	-17.7102
5.365	11.4501	17.6122	-11.4501	-17.6769
5.375	11.4288	17.5797	-11.4288	-17.6437
5.385	11.4076	17.5473	-11.4076	-17.6106
5.395	11.3865	17.515	-11.3865	-17.5777
5.405	11.3654	17.4828	-11.3654	-17.5448
5.415	11.3444	17.4508	-11.3444	-17.5121
5.425	11.3235	17.4188	-11.3235	-17.4796
5.435	11.3027	17.387	-11.3027	-17.4471
5.445	11.2819	17.3553	-11.2819	-17.4148
5.455	11.2612	17.3237	-11.2612	-17.3826
5.465	11.2406	17.2922	-11.2406	-17.3505
5.475	11.2201	17.2608	-11.2201	-17.3185
5.485	11.1996	17.2296	-11.1996	-17.2866
5.495	11.1792	17.1984	-11.1792	-17.2549
5.505	11.1589	17.1674	-11.1589	-17.2233
5.515	11.1387	17.1365	-11.1387	-17.1918
5.525	11.1185	17.1057	-11.1185	-17.1604
5.535	11.0985	17.0749	-11.0985	-17.1291
5.545	11.0784	17.0443	-11.0784	-17.098
5.555	11.0585	17.0139	-11.0585	-17.067
5.565	11.0386	16.9835	-11.0386	-17.036
5.575	11.0188	16.9532	-11.0188	-17.0052
5.585	10.9991	16.923	-10.9991	-16.9745
5.595	10.9794	16.893	-10.9794	-16.9439
5.605	10.9598	16.863	-10.9598	-16.9135
5.615	10.9403	16.8332	-10.9403	-16.8831
5.625	10.9209	16.8034	-10.9209	-16.8529
5.635	10.9015	16.7738	-10.9015	-16.8227
5.645	10.8822	16.7442	-10.8822	-16.7927
5.655	10.8629	16.7148	-10.8629	-16.7628
5.665	10.8438	16.6855	-10.8438	-16.7329
5.675	10.8247	16.6562	-10.8247	-16.7032
5.685	10.8056	16.6271	-10.8056	-16.6736
5.695	10.7866	16.5981	-10.7866	-16.6441
5.705	10.7677	16.5691	-10.7677	-16.6147
5.715	10.7489	16.5403	-10.7489	-16.5854
5.725	10.7301	16.5116	-10.7301	-16.5563
5.735	10.7114	16.4829	-10.7114	-16.5272
5.745	10.6928	16.4544	-10.6928	-16.4982
5.755	10.6742	16.426	-10.6742	-16.4693
5.765	10.6557	16.3976	-10.6557	-16.4406
5.775	10.6372	16.3694	-10.6372	-16.4119
5.785	10.6188	16.3412	-10.6188	-16.3833
5.795	10.6005	16.3132	-10.6005	-16.3548
5.805	10.5822	16.2852	-10.5822	-16.3265
5.815	10.5641	16.2573	-10.5641	-16.2982
5.825	10.5459	16.2296	-10.5459	-16.27
5.835	10.5278	16.2019	-10.5278	-16.242
5.845	10.5098	16.1743	-10.5098	-16.214
5.855	10.4919	16.1468	-10.4919	-16.1861
5.865	10.474	16.1194	-10.474	-16.1583
5.875	10.4562	16.0921	-10.4562	-16.1306
5.885	10.4384	16.0649	-10.4384	-16.103
5.895	10.4207	16.0378	-10.4207	-16.0756
5.905	10.403	16.0108	-10.403	-16.0482
5.915	10.3855	15.9838	-10.3855	-16.0208
5.925	10.3679	15.957	-10.3679	-15.9936
5.935	10.3505	15.9302	-10.3505	-15.9665
5.945	10.333	15.9035	-10.333	-15.9395
5.955	10.3157	15.877	-10.3157	-15.9126
5.965	10.2984	15.8505	-10.2984	-15.8857
5.975	10.2812	15.8241	-10.2812	-15.859
5.985	10.264	15.7977	-10.264	-15.8323
5.995	10.2469	15.7715	-10.2469	-15.8057
6.005	10.2298	15.7453	-10.2298	-15.7793
6.015	10.2128	15.7193	-10.2128	-15.7529
6.025	10.1958	15.6933	-10.1958	-15.7266
6.035	10.1789	15.6674	-10.1789	-15.7004
6.045	10.1621	15.6416	-10.1621	-15.6742
6.055	10.1453	15.6159	-10.1453	-15.6482
6.065	10.1286	15.5902	-10.1286	-15.6222
6.075	10.1119	15.5647	-10.1119	-15.5964
6.085	10.0953	15.5392	-10.0953	-15.5706
6.095	10.0787	15.5138	-10.0787	-15.5449
6.105	10.0622	15.4885	-10.0622	-15.5193
6.115	10.0458	15.4633	-10.0458	-15.4938
6.125	10.0294	15.4381	-10.0294	-15.4684
6.135	10.013	15.4131	-10.013	-15.443
6.145	9.9967	15.3881	-9.9967	-15.4177
6.155	9.9805	15.3632	-9.9805	-15.3926
6.165	9.9643	15.3384	-9.9643	-15.3675
6.175	9.9482	15.3136	-9.9482	-15.3424
6.185	9.9321	15.289	-9.9321	-15.3175
6.195	9.9161	15.2644	-9.9161	-15.2927
6.205	9.9001	15.2399	-9.9001	-15.2679
6.215	9.8841	15.2154	-9.8841	-15.2432
6.225	9.8683	15.1911	-9.8683	-15.2186
6.235	9.8524	15.1668	-9.8524	-15.194
6.245	9.8367	15.1426	-9.8367	-15.1696
6.255	9.8209	15.1185	-9.8209	-15.1452
6.265	9.8053	15.0944	-9.8053	-15.1209
6.275	9.7896	15.0705	-9.7896	-15.0967
6.285	9.7741	15.0466	-9.7741	-15.0726
6.295	9.7585	15.0228	-9.7585	-15.0485
6.305	9.7431	14.999	-9.7431	-15.0245
6.315	9.7276	14.9753	-9.7276	-15.0006
6.325	9.7122	14.9517	-9.7122	-14.9768
6.335	9.6969	14.9282	-9.6969	-14.953
6.345	9.6816	14.9048	-9.6816	-14.9294
6.355	9.6664	14.8814	-9.6664	-14.9058
6.365	9.6512	14.8581	-9.6512	-14.8822
6.375	9.6361	14.8349	-9.6361	-14.8588
6.385	9.621	14.8117	-9.621	-14.8354
6.395	9.6059	14.7886	-9.6059	-14.8121
6.405	9.5909	14.7656	-9.5909	-14.7889
6.415	9.576	14.7427	-9.576	-14.7657
6.425	9.5611	14.7198	-9.5611	-14.7426
6.435	9.5462	14.697	-9.5462	-14.7196
6.445	9.5314	14.6743	-9.5314	-14.6967
6.455	9.5166	14.6516	-9.5166	-14.6738
6.465	9.5019	14.629	-9.5019	-14.651
6.475	9.4873	14.6065	-9.4873	-14.6283
6.485	9.4726	14.584	-9.4726	-14.6056
6.495	9.458	14.5616	-9.458	-14.5831
6.505	9.4435	14.5393	-9.4435	-14.5606
6.515	9.429	14.5171	-9.429	-14.5381
6.525	9.4146	14.4949	-9.4146	-14.5157
6.535	9.4001	14.4728	-9.4001	-14.4934
6.545	9.3858	14.4507	-9.3858	-14.4712
6.555	9.3715	14.4287	-9.3715	-14.449
6.565	9.3572	14.4068	-9.3572	-14.4269
6.575	9.343	14.385	-9.343	-14.4049
6.585	9.3288	14.3632	-9.3288	-14.383
6.595	9.3146	14.3415	-9.3146	-14.3611
6.605	9.3005	14.3198	-9.3005	-14.3392
6.615	9.2865	14.2982	-9.2865	-14.3175
6.625	9.2724	14.2767	-9.2724	-14.2958
6.635	9.2585	14.2552	-9.2585	-14.2741
6.645	9.2445	14.2339	-9.2445	-14.2526
6.655	9.2306	14.2125	-9.2306	-14.2311
6.665	9.2168	14.1913	-9.2168	-14.2097
6.675	9.203	14.17	-9.203	-14.1883
6.685	9.1892	14.1489	-9.1892	-14.167
6.695	9.1755	14.1278	-9.1755	-14.1458
6.705	9.1618	14.1068	-9.1618	-14.1246
6.715	9.1482	14.0859	-9.1482	-14.1035
6.725	9.1346	14.065	-9.1346	-14.0824
6.735	9.121	14.0441	-9.121	-14.0614
6.745	9.1075	14.0234	-9.1075	-14.0405
6.755	9.094	14.0027	-9.094	-14.0197
6.765	9.0806	13.982	-9.0806	-13.9989
6.775	9.0672	13.9614	-9.0672	-13.9781
6.785	9.0538	13.9409	-9.0538	-13.9575
6.795	9.0405	13.9204	-9.0405	-13.9368
6.805	9.0272	13.9	-9.0272	-13.9163
6.815	9.0139	13.8797	-9.0139	-13.8958
6.825	9.0007	13.8594	-9.0007	-13.8754
6.835	8.9876	13.8392	-8.9876	-13.855
6.845	8.9744	13.819	-8.9744	-13.8347
6.855	8.9613	13.7989	-8.9613	-13.8145
6.865	8.9483	13.7788	-8.9483	-13.7943
6.875	8.9353	13.7588	-8.9353	-13.7741
6.885	8.9223	13.7389	-8.9223	-13.7541
6.895	8.9093	13.719	-8.9093	-13.7341
6.905	8.8964	13.6992	-8.8964	-13.7141
6.915	8.8836	13.6794	-8.8836	-13.6942
6.925	8.8708	13.6597	-8.8708	-13.6744
6.935	8.858	13.64	-8.858	-13.6546
6.945	8.8452	13.6204	-8.8452	-13.6349
6.955	8.8325	13.6009	-8.8325	-13.6152
6.965	8.8198	13.5814	-8.8198	-13.5956
6.975	8.8072	13.562	-8.8072	-13.5761
6.985	8.7946	13.5426	-8.7946	-13.5566
6.995	8.782	13.5233	-8.782	-13.5371
7.005	8.7694	13.504	-8.7694	-13.5177
7.015	8.7569	13.4848	-8.7569	-13.4984
7.025	8.7445	13.4657	-8.7445	-13.4792
7.035	8.732	13.4466	-8.732	-13.4599
7.045	8.7197	13.4275	-8.7197	-13.4408
7.055	8.7073	13.4085	-8.7073	-13.4217
7.065	8.695	13.3896	-8.695	-13.4026
7.075	8.6827	13.3707	-8.6827	-13.3836
7.085	8.6704	13.3519	-8.6704	-13.3647
7.095	8.6582	13.3331	-8.6582	-13.3458
7.105	8.646	13.3143	-8.646	-13.327
7.115	8.6339	13.2957	-8.6339	-13.3082
7.125	8.6217	13.277	-8.6217	-13.2894
7.135	8.6097	13.2585	-8.6097	-13.2708
7.145	8.5976	13.24	-8.5976	-13.2521
7.155	8.5856	13.2215	-8.5856	-13.2336
7.165	8.5736	13.2031	-8.5736	-13.2151
7.175	8.5617	13.1847	-8.5617	-13.1966
7.185	8.5498	13.1664	-8.5498	-13.1782
7.195	8.5379	13.1481	-8.5379	-13.1598
7.205	8.526	13.1299	-8.526	-13.1415
7.215	8.5142	13.1117	-8.5142	-13.1232
7.225	8.5024	13.0936	-8.5024	-13.105
7.235	8.4907	13.0756	-8.4907	-13.0869
7.245	8.4789	13.0575	-8.4789	-13.0688
7.255	8.4673	13.0396	-8.4673	-13.0507
7.265	8.4556	13.0217	-8.4556	-13.0327
7.275	8.444	13.0038	-8.444	-13.0147
7.285	8.4324	12.986	-8.4324	-12.9968
7.295	8.4208	12.9682	-8.4208	-12.979
7.305	8.4093	12.9505	-8.4093	-12.9612
7.315	8.3978	12.9328	-8.3978	-12.9434
7.325	8.3863	12.9152	-8.3863	-12.9257
7.335	8.3749	12.8976	-8.3749	-12.908
7.345	8.3635	12.8801	-8.3635	-12.8904
7.355	8.3521	12.8626	-8.3521	-12.8728
7.365	8.3408	12.8451	-8.3408	-12.8553
7.375	8.3295	12.8278	-8.3295	-12.8379
7.385	8.3182	12.8104	-8.3182	-12.8204
7.395	8.307	12.7931	-8.307	-12.8031
7.405	8.2957	12.7759	-8.2957	-12.7857
7.415	8.2846	12.7587	-8.2846	-12.7684
7.425	8.2734	12.7415	-8.2734	-12.7512
7.435	8.2623	12.7244	-8.2623	-12.734
7.445	8.2512	12.7073	-8.2512	-12.7169
7.455	8.2401	12.6903	-8.2401	-12.6998
7.465	8.2291	12.6733	-8.2291	-12.6827
7.475	8.2181	12.6564	-8.2181	-12.6657
7.485	8.2071	12.6395	-8.2071	-12.6488
7.495	8.1961	12.6227	-8.1961	-12.6319
7.505	8.1852	12.6059	-8.1852	-12.615
7.515	8.1743	12.5891	-8.1743	-12.5982
7.525	8.1634	12.5724	-8.1634	-12.5814
7.535	8.1526	12.5558	-8.1526	-12.5647
7.545	8.1418	12.5392	-8.1418	-12.548
7.555	8.131	12.5226	-8.131	-12.5313
7.565	8.1203	12.5061	-8.1203	-12.5147
7.575	8.1096	12.4896	-8.1096	-12.4982
7.585	8.0989	12.4731	-8.0989	-12.4817
7.595	8.0882	12.4567	-8.0882	-12.4652
7.605	8.0776	12.4404	-8.0776	-12.4488
7.615	8.067	12.4241	-8.067	-12.4324
7.625	8.0564	12.4078	-8.0564	-12.4161
7.635	8.0458	12.3916	-8.0458	-12.3998
7.645	8.0353	12.3754	-8.0353	-12.3835
7.655	8.0248	12.3592	-8.0248	-12.3673
7.665	8.0143	12.3431	-8.0143	-12.3512
7.675	8.0039	12.3271	-8.0039	-12.335
7.685	7.9935	12.311	-7.9935	-12.3189
7.695	7.9831	12.2951	-7.9831	-12.3029
7.705	7.9727	12.2791	-7.9727	-12.2869
7.715	7.9624	12.2632	-7.9624	-12.271
7.725	7.9521	12.2474	-7.9521	-12.255
7.735	7.9418	12.2316	-7.9418	-12.2392
7.745	7.9316	12.2158	-7.9316	-12.2233
7.755	7.9213	12.2001	-7.9213	-12.2075
7.765	7.9111	12.1844	-7.9111	-12.1918
7.775	7.901	12.1687	-7.901	-12.1761
7.785	7.8908	12.1531	-7.8908	-12.1604
7.795	7.8807	12.1375	-7.8807	-12.1448
7.805	7.8706	12.122	-7.8706	-12.1292
7.815	7.8605	12.1065	-7.8605	-12.1137
7.825	7.8505	12.0911	-7.8505	-12.0982
7.835	7.8405	12.0756	-7.8405	-12.0827
7.845	7.8305	12.0603	-7.8305	-12.0673
7.855	7.8205	12.0449	-7.8205	-12.0519
7.865	7.8105	12.0296	-7.8105	-12.0365
7.875	7.8006	12.0144	-7.8006	-12.0212
7.885	7.7907	11.9992	-7.7907	-12.0059
7.895	7.7809	11.984	-7.7809	-11.9907
7.905	7.771	11.9688	-7.771	-11.9755
7.915	7.7612	11.9537	-7.7612	-11.9604
7.925	7.7514	11.9387	-7.7514	-11.9452
7.935	7.7416	11.9236	-7.7416	-11.9302
7.945	7.7319	11.9086	-7.7319	-11.9151
7.955	7.7222	11.8937	-7.7222	-11.9001
7.965	7.7125	11.8788	-7.7125	-11.8852
7.975	7.7028	11.8639	-7.7028	-11.8702
7.985	7.6932	11.8491	-7.6932	-11.8553
7.995	7.6835	11.8342	-7.6835	-11.8405
